#F xwiggler.spec

#S 1 Wiggler spectrum
#N 3
#L PhotonEnergy[eV]  Flux[phot/s/0.1%bw]  PowerDensity[W/eV]
 1.000000000000e+02   3.540584733920e+14   5.672642131384e-02  
 1.599599599600e+02   3.894978547555e+14   6.240443618823e-02  
 2.199199199199e+02   4.112334398957e+14   6.588686085204e-02  
 2.798798798799e+02   4.255635004249e+14   6.818278966641e-02  
 3.398398398398e+02   4.352626778719e+14   6.973676921386e-02  
 3.997997997998e+02   4.418127444628e+14   7.078620557817e-02  
 4.597597597598e+02   4.461013499241e+14   7.147331592442e-02  
 5.197197197197e+02   4.487028921905e+14   7.189012894758e-02  
 5.796796796797e+02   4.500103386884e+14   7.209960497049e-02  
 6.396396396396e+02   4.503041006608e+14   7.214667082730e-02  
 6.995995995996e+02   4.497909864935e+14   7.206446087437e-02  
 7.595595595596e+02   4.486276228522e+14   7.187806947008e-02  
 8.195195195195e+02   4.469352413924e+14   7.160692006700e-02  
 8.794794794795e+02   4.448093944466e+14   7.126632183660e-02  
 9.394394394394e+02   4.423265556362e+14   7.086852720379e-02  
 9.993993993994e+02   4.395487325167e+14   7.042347087426e-02  
 1.059359359359e+03   4.365267692106e+14   6.993929897447e-02  
 1.119319319319e+03   4.333027622493e+14   6.942275611235e-02  
 1.179279279279e+03   4.299118599768e+14   6.887947367343e-02  
 1.239239239239e+03   4.263836256480e+14   6.831418821334e-02  
 1.299199199199e+03   4.227430846718e+14   6.773090924463e-02  
 1.359159159159e+03   4.190115406196e+14   6.713304997570e-02  
 1.419119119119e+03   4.152072176405e+14   6.652353023718e-02  
 1.479079079079e+03   4.113457719040e+14   6.590485842393e-02  
 1.539039039039e+03   4.074407039680e+14   6.527919756381e-02  
 1.598998998999e+03   4.035036917792e+14   6.464841867013e-02  
 1.658958958959e+03   3.995448647199e+14   6.401414464889e-02  
 1.718918918919e+03   3.955730279210e+14   6.337778623756e-02  
 1.778878878879e+03   3.915958497586e+14   6.274057204546e-02  
 1.838838838839e+03   3.876200175555e+14   6.210357349981e-02  
 1.898798798799e+03   3.836513690919e+14   6.146772591611e-02  
 1.958758758759e+03   3.796950030031e+14   6.083384618582e-02  
 2.018718718719e+03   3.757553731352e+14   6.020264789372e-02  
 2.078678678679e+03   3.718363690656e+14   5.957475421884e-02  
 2.138638638639e+03   3.679413845137e+14   5.895070889495e-02  
 2.198598598599e+03   3.640733772084e+14   5.833098580247e-02  
 2.258558558559e+03   3.602349195529e+14   5.771599708585e-02  
 2.318518518519e+03   3.564282436439e+14   5.710610036640e-02  
 2.378478478478e+03   3.526552796786e+14   5.650160489578e-02  
 2.438438438438e+03   3.489176898736e+14   5.590277699048e-02  
 2.498398398398e+03   3.452168980893e+14   5.530984477806e-02  
 2.558358358358e+03   3.415541158997e+14   5.472300237410e-02  
 2.618318318318e+03   3.379303654334e+14   5.414241354165e-02  
 2.678278278278e+03   3.343465000473e+14   5.356821500355e-02  
 2.738238238238e+03   3.308032217065e+14   5.300051922701e-02  
 2.798198198198e+03   3.273010973329e+14   5.243941704293e-02  
 2.858158158158e+03   3.238405728599e+14   5.188497989772e-02  
 2.918118118118e+03   3.204219857980e+14   5.133726186655e-02  
 2.978078078078e+03   3.170455769187e+14   5.079630152522e-02  
 3.038038038038e+03   3.137114996557e+14   5.026212345655e-02  
 3.097997997998e+03   3.104198300757e+14   4.973473984775e-02  
 3.157957957958e+03   3.071705736325e+14   4.921415157264e-02  
 3.217917917918e+03   3.039636745227e+14   4.870034969051e-02  
 3.277877877878e+03   3.007990197333e+14   4.819331609467e-02  
 3.337837837838e+03   2.976764475349e+14   4.769302487325e-02  
 3.397797797798e+03   2.945957507990e+14   4.719944284058e-02  
 3.457757757758e+03   2.915566827178e+14   4.671253045371e-02  
 3.517717717718e+03   2.885589614397e+14   4.623224255499e-02  
 3.577677677678e+03   2.856022731666e+14   4.575852886849e-02  
 3.637637637638e+03   2.826862765861e+14   4.529133470987e-02  
 3.697597597598e+03   2.798106056376e+14   4.483060142980e-02  
 3.757557557558e+03   2.769748727011e+14   4.437626692469e-02  
 3.817517517518e+03   2.741786706014e+14   4.392826595787e-02  
 3.877477477477e+03   2.714215766615e+14   4.348653080904e-02  
 3.937437437437e+03   2.687031523190e+14   4.305099121276e-02  
 3.997397397397e+03   2.660229481244e+14   4.262157515928e-02  
 4.057357357357e+03   2.633805029937e+14   4.219820877476e-02  
 4.117317317317e+03   2.607753473151e+14   4.178081681915e-02  
 4.177277277277e+03   2.582070045530e+14   4.136932294300e-02  
 4.237237237237e+03   2.556749910862e+14   4.096364966164e-02  
 4.297197197197e+03   2.531788198811e+14   4.056371894372e-02  
 4.357157157157e+03   2.507179985751e+14   4.016945190403e-02  
 4.417117117117e+03   2.482920338466e+14   3.978076950373e-02  
 4.477077077077e+03   2.459004293244e+14   3.939759221541e-02  
 4.537037037037e+03   2.435426888589e+14   3.901984054712e-02  
 4.596996996997e+03   2.412183158008e+14   3.864743492688e-02  
 4.656956956957e+03   2.389268135912e+14   3.828029579718e-02  
 4.716916916917e+03   2.366676880949e+14   3.791834398884e-02  
 4.776876876877e+03   2.344404456911e+14   3.756150041508e-02  
 4.836836836837e+03   2.322445962541e+14   3.720968654910e-02  
 4.896796796797e+03   2.300796520005e+14   3.686282423940e-02  
 4.956756756757e+03   2.279451278109e+14   3.652083576128e-02  
 5.016716716717e+03   2.258405434185e+14   3.618364416750e-02  
 5.076676676677e+03   2.237654210968e+14   3.585117291784e-02  
 5.136636636637e+03   2.217192887704e+14   3.552334637750e-02  
 5.196596596597e+03   2.197016776633e+14   3.520008944027e-02  
 5.256556556557e+03   2.177121242357e+14   3.488132783890e-02  
 5.316516516517e+03   2.157501705093e+14   3.456698819714e-02  
 5.376476476476e+03   2.138153623507e+14   3.425699775485e-02  
 5.436436436436e+03   2.119072522358e+14   3.395128481073e-02  
 5.496396396396e+03   2.100253975648e+14   3.364977845249e-02  
 5.556356356356e+03   2.081693607067e+14   3.335240856390e-02  
 5.616316316316e+03   2.063387108728e+14   3.305910612501e-02  
 5.676276276276e+03   2.045330222728e+14   3.276980291669e-02  
 5.736236236236e+03   2.027518751348e+14   3.248443168407e-02  
 5.796196196196e+03   2.009948555964e+14   3.220292611908e-02  
 5.856156156156e+03   1.992615555190e+14   3.192522083070e-02  
 5.916116116116e+03   1.975515735690e+14   3.165125151822e-02  
 5.976076076076e+03   1.958645131635e+14   3.138095464203e-02  
 6.036036036036e+03   1.941999843272e+14   3.111426772123e-02  
 6.095995995996e+03   1.925576035407e+14   3.085112930919e-02  
 6.155955955956e+03   1.909369926427e+14   3.059147881784e-02  
 6.215915915916e+03   1.893377796755e+14   3.033525665295e-02  
 6.275875875876e+03   1.877595984357e+14   3.008240414229e-02  
 6.335835835836e+03   1.862020893312e+14   2.983286367285e-02  
 6.395795795796e+03   1.846648982515e+14   2.958657850985e-02  
 6.455755755756e+03   1.831476764938e+14   2.934349278497e-02  
 6.515715715716e+03   1.816500816454e+14   2.910355163765e-02  
 6.575675675676e+03   1.801717775481e+14   2.886670120939e-02  
 6.635635635636e+03   1.787124331031e+14   2.863288845230e-02  
 6.695595595596e+03   1.772717228906e+14   2.840206122843e-02  
 6.755555555556e+03   1.758493278354e+14   2.817416841625e-02  
 6.815515515516e+03   1.744449337323e+14   2.794915967456e-02  
 6.875475475475e+03   1.730582321371e+14   2.772698558514e-02  
 6.935435435435e+03   1.716889200386e+14   2.750759760025e-02  
 6.995395395395e+03   1.703366998208e+14   2.729094803655e-02  
 7.055355355355e+03   1.690012789441e+14   2.707699002404e-02  
 7.115315315315e+03   1.676823708665e+14   2.686567765360e-02  
 7.175275275275e+03   1.663796934837e+14   2.665696572717e-02  
 7.235235235235e+03   1.650929698082e+14   2.645080986644e-02  
 7.295195195195e+03   1.638219286508e+14   2.624716662211e-02  
 7.355155155155e+03   1.625663030377e+14   2.604599322027e-02  
 7.415115115115e+03   1.613258311521e+14   2.584724771325e-02  
 7.475075075075e+03   1.601002559943e+14   2.565088892515e-02  
 7.535035035035e+03   1.588893250532e+14   2.545687639923e-02  
 7.594994994995e+03   1.576927912981e+14   2.526517055680e-02  
 7.654954954955e+03   1.565104115252e+14   2.507573243235e-02  
 7.714914914915e+03   1.553419470392e+14   2.488852378263e-02  
 7.774874874875e+03   1.541871641495e+14   2.470350716630e-02  
 7.834834834835e+03   1.530458338590e+14   2.452064589399e-02  
 7.894794794795e+03   1.519177301046e+14   2.433990374639e-02  
 7.954754754755e+03   1.508026318626e+14   2.416124531160e-02  
 8.014714714715e+03   1.497003228667e+14   2.398463593992e-02  
 8.074674674675e+03   1.486105901272e+14   2.381004150668e-02  
 8.134634634635e+03   1.475332246434e+14   2.363742852623e-02  
 8.194594594595e+03   1.464680222585e+14   2.346676428908e-02  
 8.254554554555e+03   1.454147818520e+14   2.329801657215e-02  
 8.314514514515e+03   1.443733061101e+14   2.313115376229e-02  
 8.374474474474e+03   1.433434026496e+14   2.296614503632e-02  
 8.434434434434e+03   1.423248807194e+14   2.280295983255e-02  
 8.494394394394e+03   1.413175552399e+14   2.264156849793e-02  
 8.554354354354e+03   1.403212435204e+14   2.248194176223e-02  
 8.614314314314e+03   1.393357663380e+14   2.232405091073e-02  
 8.674274274274e+03   1.383609484963e+14   2.216786787389e-02  
 8.734234234234e+03   1.373966184936e+14   2.201336517410e-02  
 8.794194194194e+03   1.364426062742e+14   2.186051556546e-02  
 8.854154154154e+03   1.354987471683e+14   2.170929266494e-02  
 8.914114114114e+03   1.345648784463e+14   2.155967040037e-02  
 8.974074074074e+03   1.336408408049e+14   2.141162324857e-02  
 9.034034034034e+03   1.327264776794e+14   2.126512612511e-02  
 9.093993993994e+03   1.318216364586e+14   2.112015457896e-02  
 9.153953953954e+03   1.309261661847e+14   2.097668442403e-02  
 9.213913913914e+03   1.300399207392e+14   2.083469224956e-02  
 9.273873873874e+03   1.291627535863e+14   2.069415457791e-02  
 9.333833833834e+03   1.282945238500e+14   2.055504883826e-02  
 9.393793793794e+03   1.274350927601e+14   2.041735279718e-02  
 9.453753753754e+03   1.265843235576e+14   2.028104454347e-02  
 9.513713713714e+03   1.257420824171e+14   2.014610263592e-02  
 9.573673673674e+03   1.249082380695e+14   2.001250604291e-02  
 9.633633633634e+03   1.240826617652e+14   1.988023413648e-02  
 9.693593593594e+03   1.232652275511e+14   1.974926673671e-02  
 9.753553553554e+03   1.224558119319e+14   1.961958405749e-02  
 9.813513513514e+03   1.216542916630e+14   1.949116635282e-02  
 9.873473473473e+03   1.208605485683e+14   1.936399468886e-02  
 9.933433433433e+03   1.200744657256e+14   1.923805033256e-02  
 9.993393393393e+03   1.192959284306e+14   1.911331490629e-02  
 1.005335335335e+04   1.185248245523e+14   1.898977044466e-02  
 1.011331331331e+04   1.177610426254e+14   1.886739908898e-02  
 1.017327327327e+04   1.170044754442e+14   1.874618366302e-02  
 1.023323323323e+04   1.162550164321e+14   1.862610709128e-02  
 1.029319319319e+04   1.155125621064e+14   1.850715279403e-02  
 1.035315315315e+04   1.147770091649e+14   1.838930422045e-02  
 1.041311311311e+04   1.140482583890e+14   1.827254547392e-02  
 1.047307307307e+04   1.133262091498e+14   1.815686043195e-02  
 1.053303303303e+04   1.126107674580e+14   1.804223403580e-02  
 1.059299299299e+04   1.119018367271e+14   1.792865081059e-02  
 1.065295295295e+04   1.111993254800e+14   1.781609610006e-02  
 1.071291291291e+04   1.105031409939e+14   1.770455504841e-02  
 1.077287287287e+04   1.098131944927e+14   1.759401343211e-02  
 1.083283283283e+04   1.091293985256e+14   1.748445724001e-02  
 1.089279279279e+04   1.084516669172e+14   1.737587266531e-02  
 1.095275275275e+04   1.077799138927e+14   1.726824596534e-02  
 1.101271271271e+04   1.071140575994e+14   1.716156402587e-02  
 1.107267267267e+04   1.064540165655e+14   1.705581379367e-02  
 1.113263263263e+04   1.057997092397e+14   1.695098220278e-02  
 1.119259259259e+04   1.051510602964e+14   1.684705718472e-02  
 1.125255255255e+04   1.045079899515e+14   1.674402595666e-02  
 1.131251251251e+04   1.038704229474e+14   1.664187646100e-02  
 1.137247247247e+04   1.032382858593e+14   1.654059693380e-02  
 1.143243243243e+04   1.026115058224e+14   1.644017570083e-02  
 1.149239239239e+04   1.019900096670e+14   1.634060103899e-02  
 1.155235235235e+04   1.013737283431e+14   1.624186188528e-02  
 1.161231231231e+04   1.007625929076e+14   1.614394719378e-02  
 1.167227227227e+04   1.001565352386e+14   1.604684605017e-02  
 1.173223223223e+04   9.955548968322e+13   1.595054793569e-02  
 1.179219219219e+04   9.895939057289e+13   1.585504232908e-02  
 1.185215215215e+04   9.836817338567e+13   1.576031889278e-02  
 1.191211211211e+04   9.778177601929e+13   1.566636767691e-02  
 1.197207207207e+04   9.720013625339e+13   1.557317871268e-02  
 1.203203203203e+04   9.662319295862e+13   1.548074220608e-02  
 1.209199199199e+04   9.605088693174e+13   1.538904867170e-02  
 1.215195195195e+04   9.548316005969e+13   1.529808879881e-02  
 1.221191191191e+04   9.491995395904e+13   1.520785323335e-02  
 1.227187187187e+04   9.436121344512e+13   1.511833313377e-02  
 1.233183183183e+04   9.380688128500e+13   1.502951933032e-02  
 1.239179179179e+04   9.325690381538e+13   1.494140322522e-02  
 1.245175175175e+04   9.271122791920e+13   1.485397630816e-02  
 1.251171171171e+04   9.216980010256e+13   1.476723000848e-02  
 1.257167167167e+04   9.163256909295e+13   1.468115611141e-02  
 1.263163163163e+04   9.109948500134e+13   1.459574662386e-02  
 1.269159159159e+04   9.057049611207e+13   1.451099326006e-02  
 1.275155155155e+04   9.004555425552e+13   1.442688830238e-02  
 1.281151151151e+04   8.952461167931e+13   1.434342410005e-02  
 1.287147147147e+04   8.900762010831e+13   1.426059291855e-02  
 1.293143143143e+04   8.849453388202e+13   1.417838744225e-02  
 1.299139139139e+04   8.798530678383e+13   1.409680026644e-02  
 1.305135135135e+04   8.747989335933e+13   1.401582410851e-02  
 1.311131131131e+04   8.697824983479e+13   1.393545195515e-02  
 1.317127127127e+04   8.648033273447e+13   1.385567684077e-02  
 1.323123123123e+04   8.598610026719e+13   1.377649206969e-02  
 1.329119119119e+04   8.549550853639e+13   1.369789060890e-02  
 1.335115115115e+04   8.500851762600e+13   1.361986606313e-02  
 1.341111111111e+04   8.452508596343e+13   1.354241177174e-02  
 1.347107107107e+04   8.404517406203e+13   1.346552140827e-02  
 1.353103103103e+04   8.356874312040e+13   1.338918875603e-02  
 1.359099099099e+04   8.309575402135e+13   1.331340754776e-02  
 1.365095095095e+04   8.262616876960e+13   1.323817169596e-02  
 1.371091091091e+04   8.215994949114e+13   1.316347513253e-02  
 1.377087087087e+04   8.169706039050e+13   1.308931212241e-02  
 1.383083083083e+04   8.123746431688e+13   1.301567671339e-02  
 1.389079079079e+04   8.078112666984e+13   1.294256336186e-02  
 1.395075075075e+04   8.032801195978e+13   1.286996638176e-02  
 1.401071071071e+04   7.987808573965e+13   1.279788025407e-02  
 1.407067067067e+04   7.943131462733e+13   1.272629963038e-02  
 1.413063063063e+04   7.898766427091e+13   1.265521900691e-02  
 1.419059059059e+04   7.854710286631e+13   1.258463328808e-02  
 1.425055055055e+04   7.810959658732e+13   1.251453705434e-02  
 1.431051051051e+04   7.767511464019e+13   1.244492537198e-02  
 1.437047047047e+04   7.724362573652e+13   1.237579322805e-02  
 1.443043043043e+04   7.681509959270e+13   1.230713577058e-02  
 1.449039039039e+04   7.638950487558e+13   1.223894797945e-02  
 1.455035035035e+04   7.596681223956e+13   1.217122515297e-02  
 1.461031031031e+04   7.554699229981e+13   1.210396258317e-02  
 1.467027027027e+04   7.513001612430e+13   1.203715563464e-02  
 1.473023023023e+04   7.471585522490e+13   1.197079974307e-02  
 1.479019019019e+04   7.430448154880e+13   1.190489041390e-02  
 1.485015015015e+04   7.389586747000e+13   1.183942322096e-02  
 1.491011011011e+04   7.348998631942e+13   1.177439389140e-02  
 1.497007007007e+04   7.308681023715e+13   1.170979796156e-02  
 1.503003003003e+04   7.268631335322e+13   1.164563128661e-02  
 1.508998998999e+04   7.228846966764e+13   1.158188970091e-02  
 1.514994994995e+04   7.189325356748e+13   1.151856910081e-02  
 1.520990990991e+04   7.150063981940e+13   1.145566544347e-02  
 1.526986986987e+04   7.111060356238e+13   1.139317474573e-02  
 1.532982982983e+04   7.072312084573e+13   1.133109317026e-02  
 1.538978978979e+04   7.033816645530e+13   1.126941667731e-02  
 1.544974974975e+04   6.995571713642e+13   1.120814154107e-02  
 1.550970970971e+04   6.957574944744e+13   1.114726400577e-02  
 1.556966966967e+04   6.919824028478e+13   1.108678036982e-02  
 1.562962962963e+04   6.882316687659e+13   1.102668698476e-02  
 1.568958958959e+04   6.845050677641e+13   1.096698025426e-02  
 1.574954954955e+04   6.808023785706e+13   1.090765663317e-02  
 1.580950950951e+04   6.771233886688e+13   1.084871271660e-02  
 1.586946946947e+04   6.734678718854e+13   1.079014488084e-02  
 1.592942942943e+04   6.698356216582e+13   1.073194981642e-02  
 1.598938938939e+04   6.662264288972e+13   1.067412417332e-02  
 1.604934934935e+04   6.626400874166e+13   1.061666464811e-02  
 1.610930930931e+04   6.590763938808e+13   1.055956798297e-02  
 1.616926926927e+04   6.555351477515e+13   1.050283096493e-02  
 1.622922922923e+04   6.520161512362e+13   1.044645042501e-02  
 1.628918918919e+04   6.485192092368e+13   1.039042323739e-02  
 1.634914914915e+04   6.450441351969e+13   1.033474641311e-02  
 1.640910910911e+04   6.415907276081e+13   1.027941672365e-02  
 1.646906906907e+04   6.381588049218e+13   1.022443126027e-02  
 1.652902902903e+04   6.347481823332e+13   1.016978706208e-02  
 1.658898898899e+04   6.313586774939e+13   1.011548120754e-02  
 1.664894894895e+04   6.279901104674e+13   1.006151081374e-02  
 1.670890890891e+04   6.246423036857e+13   1.000787303573e-02  
 1.676886886887e+04   6.213150819062e+13   9.954565065820e-03  
 1.682882882883e+04   6.180082781617e+13   9.901584228892e-03  
 1.688878878879e+04   6.147217098896e+13   9.848927599976e-03  
 1.694874874875e+04   6.114552144319e+13   9.796592573002e-03  
 1.700870870871e+04   6.082086254370e+13   9.744576482724e-03  
 1.706866866867e+04   6.049817786773e+13   9.692876697926e-03  
 1.712862862863e+04   6.017745120122e+13   9.641490620827e-03  
 1.718858858859e+04   5.985866653501e+13   9.590415686479e-03  
 1.724854854855e+04   5.954180806129e+13   9.539649362192e-03  
 1.730850850851e+04   5.922686017007e+13   9.489189146967e-03  
 1.736846846847e+04   5.891380806380e+13   9.439032669978e-03  
 1.742842842843e+04   5.860263529519e+13   9.389177296078e-03  
 1.748838838839e+04   5.829332743166e+13   9.339620712912e-03  
 1.754834834835e+04   5.798586962031e+13   9.290360540783e-03  
 1.760830830831e+04   5.768024718940e+13   9.241394429019e-03  
 1.766826826827e+04   5.737644564515e+13   9.192720055462e-03  
 1.772822822823e+04   5.707445066872e+13   9.144335125981e-03  
 1.778818818819e+04   5.677424811320e+13   9.096237373989e-03  
 1.784814814815e+04   5.647582400065e+13   9.048424559974e-03  
 1.790810810811e+04   5.617916451926e+13   9.000894471040e-03  
 1.796806806807e+04   5.588425666650e+13   8.953645023953e-03  
 1.802802802803e+04   5.559108567620e+13   8.906673852910e-03  
 1.808798798799e+04   5.529963885046e+13   8.859978923484e-03  
 1.814794794795e+04   5.500990301419e+13   8.813558124793e-03  
 1.820790790791e+04   5.472186514483e+13   8.767409370395e-03  
 1.826786786787e+04   5.443551236986e+13   8.721530597880e-03  
 1.832782782783e+04   5.415083196420e+13   8.675919768469e-03  
 1.838778778779e+04   5.386781134786e+13   8.630574866626e-03  
 1.844774774775e+04   5.358643808351e+13   8.585493899669e-03  
 1.850770770771e+04   5.330669987412e+13   8.540674897397e-03  
 1.856766766767e+04   5.302858522940e+13   8.496116018863e-03  
 1.862762762763e+04   5.275208080261e+13   8.451815125682e-03  
