#F xwiggler.spec

#S 1 Wiggler spectrum
#N 3
#L PhotonEnergy[eV]  Flux[phot/s/0.1%bw]  PowerDensity[W/eV]
 4.000000000000e+03   2.659074704509e+14   4.260307359625e-02  
 4.056056056056e+03   2.634374539803e+14   4.220733332877e-02  
 4.112112112112e+03   2.610000383459e+14   4.181681629110e-02  
 4.168168168168e+03   2.585948345223e+14   4.143146015448e-02  
 4.224224224224e+03   2.562214477472e+14   4.105120167103e-02  
 4.280280280280e+03   2.538794808181e+14   4.067597720188e-02  
 4.336336336336e+03   2.515685319202e+14   4.030572236922e-02  
 4.392392392392e+03   2.492881983411e+14   3.994037265140e-02  
 4.448448448448e+03   2.470380757432e+14   3.957986326641e-02  
 4.504504504505e+03   2.448177579197e+14   3.922412913272e-02  
 4.560560560561e+03   2.426268397774e+14   3.887310534726e-02  
 4.616616616617e+03   2.404649146597e+14   3.852672675646e-02  
 4.672672672673e+03   2.383315780004e+14   3.818492854166e-02  
 4.728728728729e+03   2.362264262300e+14   3.784764604390e-02  
 4.784784784785e+03   2.341490562682e+14   3.751481468260e-02  
 4.840840840841e+03   2.320990680704e+14   3.718637036355e-02  
 4.896896896897e+03   2.300760633051e+14   3.686224926701e-02  
 4.952952952953e+03   2.280796455655e+14   3.654238788160e-02  
 5.009009009009e+03   2.261094224453e+14   3.622672333691e-02  
 5.065065065065e+03   2.241650031390e+14   3.591519301899e-02  
 5.121121121121e+03   2.222460010888e+14   3.560773499444e-02  
 5.177177177177e+03   2.203520333872e+14   3.530428791473e-02  
 5.233233233233e+03   2.184827190332e+14   3.500479073678e-02  
 5.289289289289e+03   2.166376826013e+14   3.470918331077e-02  
 5.345345345345e+03   2.148165516563e+14   3.441740596602e-02  
 5.401401401401e+03   2.130189577337e+14   3.412939966799e-02  
 5.457457457457e+03   2.112445370687e+14   3.384510613516e-02  
 5.513513513514e+03   2.094929297413e+14   3.356446770197e-02  
 5.569569569570e+03   2.077637795033e+14   3.328742729117e-02  
 5.625625625626e+03   2.060567358513e+14   3.301392874592e-02  
 5.681681681682e+03   2.043714511196e+14   3.274391636405e-02  
 5.737737737738e+03   2.027075834903e+14   3.247733538028e-02  
 5.793793793794e+03   2.010647948697e+14   3.221413162603e-02  
 5.849849849850e+03   1.994427516877e+14   3.195425165747e-02  
 5.905905905906e+03   1.978411257629e+14   3.169764289416e-02  
 5.961961961962e+03   1.962595922566e+14   3.144425329119e-02  
 6.018018018018e+03   1.946978315181e+14   3.119403163488e-02  
 6.074074074074e+03   1.931555289233e+14   3.094692751688e-02  
 6.130130130130e+03   1.916323738019e+14   3.070289116234e-02  
 6.186186186186e+03   1.901280600571e+14   3.046187352912e-02  
 6.242242242242e+03   1.886422868168e+14   3.022382641222e-02  
 6.298298298298e+03   1.871747571067e+14   2.998870223110e-02  
 6.354354354354e+03   1.857251787061e+14   2.975645416685e-02  
 6.410410410410e+03   1.842932639055e+14   2.952703612330e-02  
 6.466466466466e+03   1.828787294629e+14   2.930040272010e-02  
 6.522522522523e+03   1.814812963638e+14   2.907650925421e-02  
 6.578578578579e+03   1.801006907042e+14   2.885531184135e-02  
 6.634634634635e+03   1.787366422729e+14   2.863676718893e-02  
 6.690690690691e+03   1.773888851961e+14   2.842083269925e-02  
 6.746746746747e+03   1.760571586123e+14   2.820746657771e-02  
 6.802802802803e+03   1.747412052190e+14   2.799662759989e-02  
 6.858858858859e+03   1.734407721790e+14   2.778827525681e-02  
 6.914914914915e+03   1.721556108114e+14   2.758236970540e-02  
 6.970970970971e+03   1.708854763274e+14   2.737887172617e-02  
 7.027027027027e+03   1.696301287615e+14   2.717774287241e-02  
 7.083083083083e+03   1.683893314391e+14   2.697894522466e-02  
 7.139139139139e+03   1.671628516755e+14   2.678244150273e-02  
 7.195195195195e+03   1.659504614663e+14   2.658819517628e-02  
 7.251251251251e+03   1.647519356906e+14   2.639617017697e-02  
 7.307307307307e+03   1.635670540805e+14   2.620633121400e-02  
 7.363363363363e+03   1.623955993826e+14   2.601864347952e-02  
 7.419419419419e+03   1.612373583367e+14   2.583307280549e-02  
 7.475475475475e+03   1.600921213523e+14   2.564958561182e-02  
 7.531531531532e+03   1.589596822022e+14   2.546814885725e-02  
 7.587587587588e+03   1.578398390322e+14   2.528873020117e-02  
 7.643643643644e+03   1.567323927311e+14   2.511129774246e-02  
 7.699699699700e+03   1.556371476356e+14   2.493582013242e-02  
 7.755755755756e+03   1.545539120394e+14   2.476226665629e-02  
 7.811811811812e+03   1.534824976222e+14   2.459060714182e-02  
 7.867867867868e+03   1.524227191244e+14   2.442081190719e-02  
 7.923923923924e+03   1.513743936771e+14   2.425285165354e-02  
 7.979979979980e+03   1.503373430180e+14   2.408669782010e-02  
 8.036036036036e+03   1.493113920813e+14   2.392232235827e-02  
 8.092092092092e+03   1.482963671969e+14   2.375969744299e-02  
 8.148148148148e+03   1.472920994448e+14   2.359879601032e-02  
 8.204204204204e+03   1.462984226563e+14   2.343959143709e-02  
 8.260260260260e+03   1.453151730451e+14   2.328205748185e-02  
 8.316316316316e+03   1.443421897244e+14   2.312616836768e-02  
 8.372372372372e+03   1.433793158484e+14   2.297189896512e-02  
 8.428428428428e+03   1.424263953302e+14   2.281922426629e-02  
 8.484484484484e+03   1.414832768998e+14   2.266812003506e-02  
 8.540540540541e+03   1.405498108442e+14   2.251856228477e-02  
 8.596596596597e+03   1.396258501059e+14   2.237052745420e-02  
 8.652652652653e+03   1.387112508507e+14   2.222399249859e-02  
 8.708708708709e+03   1.378058715352e+14   2.207893474017e-02  
 8.764764764765e+03   1.369095737940e+14   2.193533201036e-02  
 8.820820820821e+03   1.360222201740e+14   2.179316228676e-02  
 8.876876876877e+03   1.351436766053e+14   2.165240408898e-02  
 8.932932932933e+03   1.342738120580e+14   2.151303642375e-02  
 8.988988988989e+03   1.334124969178e+14   2.137503852453e-02  
 9.045045045045e+03   1.325596038871e+14   2.123838999602e-02  
 9.101101101101e+03   1.317150089114e+14   2.110307096249e-02  
 9.157157157157e+03   1.308785888776e+14   2.096906169906e-02  
 9.213213213213e+03   1.300502248323e+14   2.083634314727e-02  
 9.269269269269e+03   1.292297967308e+14   2.070489607387e-02  
 9.325325325325e+03   1.284171895384e+14   2.057470204823e-02  
 9.381381381381e+03   1.276122896823e+14   2.044574287402e-02  
 9.437437437437e+03   1.268149849811e+14   2.031800057778e-02  
 9.493493493493e+03   1.260251655770e+14   2.019145755834e-02  
 9.549549549550e+03   1.252427235743e+14   2.006609652893e-02  
 9.605605605606e+03   1.244675530167e+14   1.994190051345e-02  
 9.661661661662e+03   1.236995494935e+14   1.981885278348e-02  
 9.717717717718e+03   1.229386121832e+14   1.969693718562e-02  
 9.773773773774e+03   1.221846397103e+14   1.957613747776e-02  
 9.829829829830e+03   1.214375327735e+14   1.945643775003e-02  
 9.885885885886e+03   1.206971952355e+14   1.933782259956e-02  
 9.941941941942e+03   1.199635319967e+14   1.922027678972e-02  
 9.997997997998e+03   1.192364499974e+14   1.910378541069e-02  
 1.005405405405e+04   1.185158568131e+14   1.898833365445e-02  
 1.011011011011e+04   1.178016623043e+14   1.887390707904e-02  
 1.016616616617e+04   1.170937786788e+14   1.876049161859e-02  
 1.022222222222e+04   1.163921186439e+14   1.864807328730e-02  
 1.027827827828e+04   1.156965971616e+14   1.853663846056e-02  
 1.033433433433e+04   1.150071303754e+14   1.842617370309e-02  
 1.039039039039e+04   1.143236351382e+14   1.831666569324e-02  
 1.044644644645e+04   1.136460308855e+14   1.820810152316e-02  
 1.050250250250e+04   1.129742376873e+14   1.810046838666e-02  
 1.055855855856e+04   1.123081785635e+14   1.799375395016e-02  
 1.061461461461e+04   1.116477752648e+14   1.788794567674e-02  
 1.067067067067e+04   1.109929535190e+14   1.778303166668e-02  
 1.072672672673e+04   1.103436384903e+14   1.767899992997e-02  
 1.078278278278e+04   1.096997577668e+14   1.757583886494e-02  
 1.083883883884e+04   1.090612406155e+14   1.747353713892e-02  
 1.089489489489e+04   1.084280156472e+14   1.737208331409e-02  
 1.095095095095e+04   1.078000137967e+14   1.727146632500e-02  
 1.100700700701e+04   1.071771680159e+14   1.717167542934e-02  
 1.106306306306e+04   1.065594116539e+14   1.707269994847e-02  
 1.111911911912e+04   1.059466776388e+14   1.697452913627e-02  
 1.117517517518e+04   1.053389039562e+14   1.687715305698e-02  
 1.123123123123e+04   1.047360269978e+14   1.678056151939e-02  
 1.128728728729e+04   1.041379822001e+14   1.668474417928e-02  
 1.134334334334e+04   1.035447112452e+14   1.658969169314e-02  
 1.139939939940e+04   1.029561520977e+14   1.649539412175e-02  
 1.145545545546e+04   1.023722469506e+14   1.640184220343e-02  
 1.151151151151e+04   1.017929361440e+14   1.630902637961e-02  
 1.156756756757e+04   1.012181642738e+14   1.621693777358e-02  
 1.162362362362e+04   1.006478748949e+14   1.612556734183e-02  
 1.167967967968e+04   1.000820124890e+14   1.603490618936e-02  
 1.173573573574e+04   9.952052371938e+13   1.594494577066e-02  
 1.179179179179e+04   9.896335494064e+13   1.585567749081e-02  
 1.184784784785e+04   9.841045337821e+13   1.576709289439e-02  
 1.190390390390e+04   9.786176840295e+13   1.567918386971e-02  
 1.195995995996e+04   9.731724900315e+13   1.559194224380e-02  
 1.201601601602e+04   9.677684500272e+13   1.550535997756e-02  
 1.207207207207e+04   9.624050789368e+13   1.541942929915e-02  
 1.212812812813e+04   9.570819000825e+13   1.533414257136e-02  
 1.218418418418e+04   9.517984318354e+13   1.524949207765e-02  
 1.224024024024e+04   9.465542176091e+13   1.516547050267e-02  
 1.229629629630e+04   9.413487957614e+13   1.508207045013e-02  
 1.235235235235e+04   9.361817118473e+13   1.499928463900e-02  
 1.240840840841e+04   9.310525276584e+13   1.491710604841e-02  
 1.246446446446e+04   9.259608124005e+13   1.483552777628e-02  
 1.252052052052e+04   9.209061291591e+13   1.475454282246e-02  
 1.257657657658e+04   9.158880655984e+13   1.467414458061e-02  
 1.263263263263e+04   9.109062031858e+13   1.459432634510e-02  
 1.268868868869e+04   9.059601297737e+13   1.451508151259e-02  
 1.274474474474e+04   9.010494488295e+13   1.443640372993e-02  
 1.280080080080e+04   8.961737658868e+13   1.435828667708e-02  
 1.285685685686e+04   8.913326974906e+13   1.428072421040e-02  
 1.291291291291e+04   8.865258571606e+13   1.420371013780e-02  
 1.296896896897e+04   8.817528646131e+13   1.412723836646e-02  
 1.302502502503e+04   8.770133592592e+13   1.405130311911e-02  
 1.308108108108e+04   8.723069679006e+13   1.397589841646e-02  
 1.313713713714e+04   8.676333370148e+13   1.390101859445e-02  
 1.319319319319e+04   8.629921188475e+13   1.382665808144e-02  
 1.324924924925e+04   8.583829619999e+13   1.375281124740e-02  
 1.330530530531e+04   8.538055202023e+13   1.367947254448e-02  
 1.336136136136e+04   8.492594668081e+13   1.360663673923e-02  
 1.341741741742e+04   8.447444614704e+13   1.353429837869e-02  
 1.347347347347e+04   8.402601831748e+13   1.346245231963e-02  
 1.352952952953e+04   8.358063161484e+13   1.339109350283e-02  
 1.358558558559e+04   8.313825399122e+13   1.332021679363e-02  
 1.364164164164e+04   8.269885437202e+13   1.324981721334e-02  
 1.369769769770e+04   8.226240166061e+13   1.317988977974e-02  
 1.375375375375e+04   8.182886668795e+13   1.311042981941e-02  
 1.380980980981e+04   8.139821880234e+13   1.304143242143e-02  
 1.386586586587e+04   8.097042975087e+13   1.297289305918e-02  
 1.392192192192e+04   8.054547027126e+13   1.290480704432e-02  
 1.397797797798e+04   8.012331151660e+13   1.283716975506e-02  
 1.403403403403e+04   7.970392705166e+13   1.276997695602e-02  
 1.409009009009e+04   7.928728789205e+13   1.270322400339e-02  
 1.414614614615e+04   7.887336793163e+13   1.263690671449e-02  
 1.420220220220e+04   7.846213949226e+13   1.257102065481e-02  
 1.425825825826e+04   7.805357625140e+13   1.250556160701e-02  
 1.431431431431e+04   7.764765279917e+13   1.244052549998e-02  
 1.437037037037e+04   7.724434360824e+13   1.237590824378e-02  
 1.442642642643e+04   7.684362403896e+13   1.231170589071e-02  
 1.448248248248e+04   7.644546829052e+13   1.224791430703e-02  
 1.453853853854e+04   7.604985243803e+13   1.218452965954e-02  
 1.459459459459e+04   7.565675240924e+13   1.212154809144e-02  
 1.465065065065e+04   7.526614447915e+13   1.205896580158e-02  
 1.470670670671e+04   7.487800526366e+13   1.199677904340e-02  
 1.476276276276e+04   7.449231171330e+13   1.193498412397e-02  
 1.481881881882e+04   7.410904110719e+13   1.187357740301e-02  
 1.487487487487e+04   7.372817157737e+13   1.181255537688e-02  
 1.493093093093e+04   7.334967999458e+13   1.175191433987e-02  
 1.498698698699e+04   7.297354510586e+13   1.169165088688e-02  
 1.504304304304e+04   7.259974544601e+13   1.163176157879e-02  
 1.509909909910e+04   7.222825984961e+13   1.157224302455e-02  
 1.515515515516e+04   7.185906744571e+13   1.151309188025e-02  
 1.521121121121e+04   7.149214765247e+13   1.145430484833e-02  
 1.526726726727e+04   7.112748017198e+13   1.139587867668e-02  
 1.532332332332e+04   7.076504552885e+13   1.133781024503e-02  
 1.537937937938e+04   7.040482290342e+13   1.128009621768e-02  
 1.543543543544e+04   7.004679335049e+13   1.122273355928e-02  
 1.549149149149e+04   6.969093765797e+13   1.116571919172e-02  
 1.554754754755e+04   6.933723687325e+13   1.110905007844e-02  
 1.560360360360e+04   6.898567229854e+13   1.105272322375e-02  
 1.565965965966e+04   6.863622548644e+13   1.099673567203e-02  
 1.571571571572e+04   6.828887823543e+13   1.094108450709e-02  
 1.577177177177e+04   6.794361258557e+13   1.088576685142e-02  
 1.582782782783e+04   6.760041138076e+13   1.083077995630e-02  
 1.588388388388e+04   6.725925601156e+13   1.077612084019e-02  
 1.593993993994e+04   6.692012977132e+13   1.072178682639e-02  
 1.599599599600e+04   6.658301562474e+13   1.066777518552e-02  
 1.605205205205e+04   6.624789675762e+13   1.061408322367e-02  
 1.610810810811e+04   6.591475657305e+13   1.056070828171e-02  
 1.616416416416e+04   6.558357868766e+13   1.050764773475e-02  
 1.622022022022e+04   6.525434692785e+13   1.045489899147e-02  
 1.627627627628e+04   6.492704532622e+13   1.040245949363e-02  
 1.633233233233e+04   6.460165870377e+13   1.035032680928e-02  
 1.638838838839e+04   6.427817033638e+13   1.029849825892e-02  
 1.644444444444e+04   6.395656542716e+13   1.024697147183e-02  
 1.650050050050e+04   6.363682879856e+13   1.019574401629e-02  
 1.655655655656e+04   6.331894546216e+13   1.014481349090e-02  
 1.661261261261e+04   6.300290061540e+13   1.009417752402e-02  
 1.666866866867e+04   6.268867963840e+13   1.004383377330e-02  
 1.672472472472e+04   6.237626809095e+13   9.993779925144e-03  
 1.678078078078e+04   6.206565170938e+13   9.944013694275e-03  
 1.683683683684e+04   6.175681700467e+13   9.894532919510e-03  
 1.689289289289e+04   6.144974886836e+13   9.845335180205e-03  
 1.694894894895e+04   6.114443413720e+13   9.796418367377e-03  
 1.700500500501e+04   6.084085922467e+13   9.747780304225e-03  
 1.706106106106e+04   6.053901070652e+13   9.699418839946e-03  
 1.711711711712e+04   6.023887531805e+13   9.651331849303e-03  
 1.717317317317e+04   5.994043995150e+13   9.603517232197e-03  
 1.722922922923e+04   5.964369165340e+13   9.555972913258e-03  
 1.728528528529e+04   5.934861762211e+13   9.508696841434e-03  
 1.734134134134e+04   5.905520520524e+13   9.461686989591e-03  
 1.739739739740e+04   5.876344252206e+13   9.414941454225e-03  
 1.745345345345e+04   5.847331597493e+13   9.368458056753e-03  
 1.750950950951e+04   5.818481395683e+13   9.322234937527e-03  
 1.756556556557e+04   5.789792438854e+13   9.276270161242e-03  
 1.762162162162e+04   5.761263532834e+13   9.230561814623e-03  
 1.767767767768e+04   5.732893496981e+13   9.185108006074e-03  
 1.773373373373e+04   5.704681163965e+13   9.139906865325e-03  
 1.778978978979e+04   5.676625379552e+13   9.094956543090e-03  
 1.784584584585e+04   5.648725002399e+13   9.050255210736e-03  
 1.790190190190e+04   5.620978903844e+13   9.005801059946e-03  
 1.795795795796e+04   5.593386032078e+13   8.961592405538e-03  
 1.801401401401e+04   5.565945155761e+13   8.917627274686e-03  
 1.807007007007e+04   5.538655246178e+13   8.873904019209e-03  
 1.812612612613e+04   5.511515223421e+13   8.830420908900e-03  
 1.818218218218e+04   5.484524019291e+13   8.787176232321e-03  
 1.823823823824e+04   5.457680577122e+13   8.744168296501e-03  
 1.829429429429e+04   5.430983851595e+13   8.701395426656e-03  
 1.835035035035e+04   5.404432808562e+13   8.658855965901e-03  
 1.840640640641e+04   5.378026424876e+13   8.616548274971e-03  
 1.846246246246e+04   5.351763688222e+13   8.574470731959e-03  
 1.851851851852e+04   5.325643662690e+13   8.532621837373e-03  
 1.857457457457e+04   5.299665226925e+13   8.490999794602e-03  
 1.863063063063e+04   5.273827464593e+13   8.449603135518e-03  
 1.868668668669e+04   5.248129405060e+13   8.408430304996e-03  
 1.874274274274e+04   5.222570087724e+13   8.367479763979e-03  
 1.879879879880e+04   5.197148561856e+13   8.326749989233e-03  
 1.885485485485e+04   5.171863886455e+13   8.286239473107e-03  
 1.891091091091e+04   5.146715130102e+13   8.245946723304e-03  
 1.896696696697e+04   5.121701370814e+13   8.205870262645e-03  
 1.902302302302e+04   5.096821695907e+13   8.166008628847e-03  
 1.907907907908e+04   5.072075201855e+13   8.126360374304e-03  
 1.913513513514e+04   5.047461061998e+13   8.086924174558e-03  
 1.919119119119e+04   5.022978256331e+13   8.047698395384e-03  
 1.924724724725e+04   4.998625974580e+13   8.008681738578e-03  
 1.930330330330e+04   4.974403348527e+13   7.969872813101e-03  
 1.935935935936e+04   4.950309518460e+13   7.931270241544e-03  
 1.941541541542e+04   4.926343633052e+13   7.892872659930e-03  
 1.947147147147e+04   4.902504849234e+13   7.854678717514e-03  
 1.952752752753e+04   4.878792332083e+13   7.816687076602e-03  
 1.958358358358e+04   4.855205254700e+13   7.778896412355e-03  
 1.963963963964e+04   4.831742798098e+13   7.741305412610e-03  
 1.969569569570e+04   4.808404151086e+13   7.703912777699e-03  
 1.975175175175e+04   4.785188510164e+13   7.666717220271e-03  
 1.980780780781e+04   4.762095150010e+13   7.629717578231e-03  
 1.986386386386e+04   4.739123142264e+13   7.592912364184e-03  
 1.991991991992e+04   4.716271775174e+13   7.556300437777e-03  
 1.997597597598e+04   4.693540274921e+13   7.519880559216e-03  
 2.003203203203e+04   4.670927874852e+13   7.483651500187e-03  
 2.008808808809e+04   4.648433815378e+13   7.447612043694e-03  
 2.014414414414e+04   4.626057343877e+13   7.411760983903e-03  
 2.020020020020e+04   4.603797714598e+13   7.376097125991e-03  
 2.025625625626e+04   4.581654188566e+13   7.340619285989e-03  
 2.031231231231e+04   4.559626033495e+13   7.305326290643e-03  
 2.036836836837e+04   4.537712523688e+13   7.270216977262e-03  
 2.042442442442e+04   4.515912939958e+13   7.235290193578e-03  
 2.048048048048e+04   4.494226642213e+13   7.200544914054e-03  
 2.053653653654e+04   4.472652779936e+13   7.165979776009e-03  
 2.059259259259e+04   4.451190724350e+13   7.131593772032e-03  
 2.064864864865e+04   4.429839781427e+13   7.097385790165e-03  
 2.070470470470e+04   4.408599263218e+13   7.063354728198e-03  
 2.076076076076e+04   4.387468487780e+13   7.029499493533e-03  
 2.081681681682e+04   4.366446779092e+13   6.995819003066e-03  
 2.087287287287e+04   4.345533466979e+13   6.962312183058e-03  
 2.092892892893e+04   4.324727887035e+13   6.928977969015e-03  
 2.098498498498e+04   4.304029380550e+13   6.895815305567e-03  
 2.104104104104e+04   4.283437294438e+13   6.862823146352e-03  
 2.109709709710e+04   4.262950981158e+13   6.830000453898e-03  
 2.115315315315e+04   4.242569798649e+13   6.797346199510e-03  
 2.120920920921e+04   4.222293185535e+13   6.764859483762e-03  
 2.126526526527e+04   4.202120361243e+13   6.732539056039e-03  
 2.132132132132e+04   4.182050773742e+13   6.700384031891e-03  
