Photon Energy [eV],Spectral power [W/eV]
1.000000000000000000e+02,6.308010358234135417e-02
4.204408817635270452e+02,7.878265593905935116e-02
7.408817635270540904e+02,7.826867392350228547e-02
1.061322645290581022e+03,7.432376749923491621e-02
1.381763527054108181e+03,6.942044300780801647e-02
1.702204408817635340e+03,6.440487381089088359e-02
2.022645290581162271e+03,5.961216517263821096e-02
2.343086172344689203e+03,5.517241265122554278e-02
2.663527054108216362e+03,5.112360539557690708e-02
2.983967935871743521e+03,4.746058859594180085e-02
3.304408817635270680e+03,4.415842239765947752e-02
3.624849699398797384e+03,4.118414107294740556e-02
3.945290581162324543e+03,3.850280084892152010e-02
4.265731462925851702e+03,3.608055587333632019e-02
4.586172344689378406e+03,3.388613290568252834e-02
4.906613226452906019e+03,3.189143034593925480e-02
5.227054108216432724e+03,3.007164007363053240e-02
5.547494989979959428e+03,2.840511638857071489e-02
5.867935871743487041e+03,2.687312062471397534e-02
6.188376753507013746e+03,2.545951494446086275e-02
6.508817635270541359e+03,2.415044657389784841e-02
6.829258517034068063e+03,2.293404523543460943e-02
7.149699398797594768e+03,2.180014681769138971e-02
7.470140280561122381e+03,2.074004328445265555e-02
7.790581162324649085e+03,1.974625813794364526e-02
8.111022044088175790e+03,1.881237111818888016e-02
8.431462925851703403e+03,1.793284382494557405e-02
8.751903807615230107e+03,1.710288747237605905e-02
9.072344689378756811e+03,1.631834330263173816e-02
9.392785571142283516e+03,1.557558375867508504e-02
9.713226452905812039e+03,1.487142966481060438e-02
1.003366733466933874e+04,1.420308079426950247e-02
1.035410821643286545e+04,1.356805702330441885e-02
1.067454909819639215e+04,1.296414988076669515e-02
1.099498997995991886e+04,1.238938216269127798e-02
1.131543086172344738e+04,1.184197333795585817e-02
1.163587174348697408e+04,1.132031204950891164e-02
1.195631262525050079e+04,1.082293176341118067e-02
1.227675350701402749e+04,1.034849137441860509e-02
1.259719438877755420e+04,9.895759030757596622e-03
1.291763527054108272e+04,9.463597560005395162e-03
1.323807615230460942e+04,9.050953785527523707e-03
1.355851703406813613e+04,8.656847834048114060e-03
1.387895791583166283e+04,8.280365889700075366e-03
1.419939879759518954e+04,7.920652344471647635e-03
1.451983967935871624e+04,7.576904279972609089e-03
1.484028056112224476e+04,7.248366768129002255e-03
1.516072144288577147e+04,6.934327669908793915e-03
1.548116232464929817e+04,6.634114918093550820e-03
1.580160320641282487e+04,6.347092237759584081e-03
1.612204408817635158e+04,6.072657390603613224e-03
1.644248496993988010e+04,5.810238612623475941e-03
1.676292585170340681e+04,5.559293538716147086e-03
1.708336673346693351e+04,5.319306138413305331e-03
1.740380761523046021e+04,5.089785971684943761e-03
1.772424849699398692e+04,4.870266254039103820e-03
1.804468937875751362e+04,4.660301906990366866e-03
1.836513026052104033e+04,4.459469444472556610e-03
1.868557114228456703e+04,4.267364479471704580e-03
1.900601202404809737e+04,4.083601985660503808e-03
1.932645290581162408e+04,3.907813969751692575e-03
1.964689378757515078e+04,3.739649721196353777e-03
1.996733466933867749e+04,3.578774504211992315e-03
2.028777555110220419e+04,3.424868156262483171e-03
2.060821643286573089e+04,3.277625660872007015e-03
2.092865731462925760e+04,3.136754961627894345e-03
2.124909819639278430e+04,3.001977597054662512e-03
2.156953907815631101e+04,2.873027571543333280e-03
2.188997995991983771e+04,2.749650120754987791e-03
2.221042084168336442e+04,2.631602580575030138e-03
2.253086172344689476e+04,2.518652262953202745e-03
2.285130260521042146e+04,2.410577344211385208e-03
2.317174348697394817e+04,2.307165841955408081e-03
2.349218436873747487e+04,2.208214488706782518e-03
2.381262525050100157e+04,2.113529799230763010e-03
2.413306613226452828e+04,2.022925988736886706e-03
2.445350701402805498e+04,1.936226034093075678e-03
2.477394789579158169e+04,1.853260725702012609e-03
2.509438877755510839e+04,1.773867623307628103e-03
2.541482965931863509e+04,1.697892036532898993e-03
2.573527054108216544e+04,1.625186089933951163e-03
2.605571142284569214e+04,1.555607692905180148e-03
2.637615230460921885e+04,1.489021630056217797e-03
2.669659318637274555e+04,1.425298634712804423e-03
2.701703406813627225e+04,1.364314368370785199e-03
2.733747494989979896e+04,1.305950610131636786e-03
2.765791583166332566e+04,1.250094335042838296e-03
2.797835671342685237e+04,1.196636699113263211e-03
2.829879759519037907e+04,1.145474319249070597e-03
2.861923847695390577e+04,1.096508353364573224e-03
2.893967935871743248e+04,1.049643487006686124e-03
2.926012024048096282e+04,1.004789297600830553e-03
2.958056112224448952e+04,9.618593333834531351e-04
2.990100200400801623e+04,9.207700972603555939e-04
3.022144288577154293e+04,8.814424918398059382e-04
3.054188376753506964e+04,8.438008939342855549e-04
3.086232464929859634e+04,8.077721305534840430e-04
3.118276553106212305e+04,7.732870041315550134e-04
3.150320641282564975e+04,7.402793587776452253e-04
3.182364729458917645e+04,7.086850421995904157e-04
3.214408817635270316e+04,6.784438058553155654e-04
3.246452905811622986e+04,6.494968982121660525e-04
3.278496993987976020e+04,6.217889250699795657e-04
3.310541082164328691e+04,5.952669331380624823e-04
3.342585170340681361e+04,5.698793737396111144e-04
3.374629258517034032e+04,5.455777816304914485e-04
3.406673346693386702e+04,5.223158339657951602e-04
3.438717434869739373e+04,5.000482738855586626e-04
3.470761523046092043e+04,4.787330260156143170e-04
3.502805611222444713e+04,4.583286023693297433e-04
3.534849699398797384e+04,4.387965402069028968e-04
3.566893787575150054e+04,4.200987920104544415e-04
3.598937875751502725e+04,4.022002086885203675e-04
3.630981963927855395e+04,3.850662136428283523e-04
3.663026052104208065e+04,3.686637034202827731e-04
3.695070140280560736e+04,3.529623145759845236e-04
3.727114228456913406e+04,3.379312162231523121e-04
3.759158316633266077e+04,3.235413273436870936e-04
3.791202404809619475e+04,3.097656539980446163e-04
3.823246492985972145e+04,2.965778934208092472e-04
3.855290581162324816e+04,2.839528743306200787e-04
3.887334669338677486e+04,2.718665079468485387e-04
3.919378757515030156e+04,2.602957411457934057e-04
3.951422845691382827e+04,2.492185116617699715e-04
3.983466933867735497e+04,2.386137052427221995e-04
4.015511022044088168e+04,2.284611146740579625e-04
4.047555110220440838e+04,2.187414005882728650e-04
4.079599198396793508e+04,2.094360539816372130e-04
4.111643286573146179e+04,2.005273603627356774e-04
4.143687374749498849e+04,1.919983654610274079e-04
4.175731462925851520e+04,1.838328424267943770e-04
4.207775551102204190e+04,1.760152604569209652e-04
4.239819639278556861e+04,1.685307547838643574e-04
4.271863727454909531e+04,1.613650979679749978e-04
4.303907815631262201e+04,1.545046724359851729e-04
4.335951903807614872e+04,1.479364442110314443e-04
4.367995991983967542e+04,1.416479377820055951e-04
4.400040080160320213e+04,1.356272120623433876e-04
4.432084168336672883e+04,1.298628373905802013e-04
4.464128256513026281e+04,1.243438735271103581e-04
4.496172344689378951e+04,1.190598486036105989e-04
4.528216432865731622e+04,1.140007389835102415e-04
4.560260521042084292e+04,1.091569499937358138e-04
4.592304609218436963e+04,1.045192974897132088e-04
4.624348697394789633e+04,1.000789902172885093e-04
4.656392785571142304e+04,9.582761293683444179e-05
4.688436873747494974e+04,9.175711027633839034e-05
4.720480961923847644e+04,8.785977128173254607e-05
4.752525050100200315e+04,8.412821463412342693e-05
4.784569138276552985e+04,8.055537450491254527e-05
4.816613226452905656e+04,7.713448702107622882e-05
4.848657314629258326e+04,7.385907731409045837e-05
4.880701402805610996e+04,7.072294712715054366e-05
4.912745490981963667e+04,6.772016295644797278e-05
4.944789579158316337e+04,6.484504470332958653e-05
4.976833667334669008e+04,6.209215481517931347e-05
5.008877755511021678e+04,5.945628789383348918e-05
5.040921843687374349e+04,5.693246075126810838e-05
5.072965931863727019e+04,5.451590289318204296e-05
5.105010020040079689e+04,5.220204741194790212e-05
5.137054108216433087e+04,4.998652227121144558e-05
5.169098196392785758e+04,4.786514196519378828e-05
5.201142284569138428e+04,4.583389953649000015e-05
5.233186372745491099e+04,4.388895893686595943e-05
5.265230460921843769e+04,4.202664771622841765e-05
5.297274549098196439e+04,4.024345002559154711e-05
5.329318637274549110e+04,3.853599992047883083e-05
5.361362725450901780e+04,3.690107495179028945e-05
5.393406813627254451e+04,3.533559003172914974e-05
5.425450901803607121e+04,3.383659156292090803e-05
5.457494989979959792e+04,3.240125181937418775e-05
5.489539078156312462e+04,3.102686356842539113e-05
5.521583166332665132e+04,2.971083492328076934e-05
5.553627254509017803e+04,2.845068441622022475e-05
5.585671342685370473e+04,2.724403628295809555e-05
5.617715430861723144e+04,2.608861594906860005e-05
5.649759519038075814e+04,2.498224570977735599e-05
5.681803607214428484e+04,2.392284059479736757e-05
5.713847695390781155e+04,2.290840441024845470e-05
5.745891783567133825e+04,2.193702595004345501e-05
5.777935871743486496e+04,2.100687536945419464e-05
5.809979959919839166e+04,2.011620071388557732e-05
5.842024048096192564e+04,1.926332459618739390e-05
5.874068136272545235e+04,1.844664101612202128e-05
5.906112224448897905e+04,1.766461231588143532e-05
5.938156312625250575e+04,1.691576626581144975e-05
5.970200400801603246e+04,1.619869327475270945e-05
6.002244488977955916e+04,1.551204371964956053e-05
6.034288577154308587e+04,1.485452538930858376e-05
6.066332665330661257e+04,1.422490103740959741e-05
6.098376753507013927e+04,1.362198604008267756e-05
6.130420841683366598e+04,1.304464615356723725e-05
6.162464929859719268e+04,1.249179536766203101e-05
6.194509018036071939e+04,1.196239385086003697e-05
6.226553106212424609e+04,1.145544598323900653e-05
6.258597194388777280e+04,1.096999847334745871e-05
6.290641282565129950e+04,1.050513855548793482e-05
6.322685370741482620e+04,1.005999226395415702e-05
6.354729458917835291e+04,9.633722780926608968e-06
6.386773547094187961e+04,9.225528854873126509e-06
6.418817635270540632e+04,8.834643286436433493e-06
6.450861723446893302e+04,8.460331478920342130e-06
6.482905811623245972e+04,8.101890050610474855e-06
6.514949899799599370e+04,7.758645506284132370e-06
6.546993987975952041e+04,7.429952965377460293e-06
6.579038076152304711e+04,7.115194944386881825e-06
6.611082164328657382e+04,6.813780191185765042e-06
6.643126252505010052e+04,6.525142569036770704e-06
6.675170340681362723e+04,6.248739988175643073e-06
6.707214428857715393e+04,5.984053382933251265e-06
6.739258517034068063e+04,5.730585732450002500e-06
6.771302605210420734e+04,5.487861123120050944e-06
6.803346693386773404e+04,5.255423850982744164e-06
6.835390781563126075e+04,5.032837562354984736e-06
6.867434869739478745e+04,4.819684431071431720e-06
6.899478957915831415e+04,4.615564370769396067e-06
6.931523046092184086e+04,4.420094280722207228e-06
6.963567134268536756e+04,4.232907323789003720e-06
6.995611222444889427e+04,4.053652235110063772e-06
7.027655310621242097e+04,3.881992660235681315e-06
7.059699398797594768e+04,3.717606521432611524e-06
7.091743486973947438e+04,3.560185410965836132e-06
7.123787575150300108e+04,3.409434010205025852e-06
7.155831663326652779e+04,3.265069533454062388e-06
7.187875751503005449e+04,3.126821195449305011e-06
7.219919839679358120e+04,2.994429701517233609e-06
7.251963927855710790e+04,2.867646759425362769e-06
7.284008016032063460e+04,2.746234612001551601e-06
7.316052104208416131e+04,2.629965589636405736e-06
7.348096192384768801e+04,2.518621681821298491e-06
7.380140280561121472e+04,2.411994126910735356e-06
7.412184368737474142e+04,2.309883019332485870e-06
7.444228456913826813e+04,2.212096933502029818e-06
7.476272545090179483e+04,2.118452563729658004e-06
7.508316633266532153e+04,2.028774379438957756e-06
7.540360721442886279e+04,1.942894295044463954e-06
7.572404809619238949e+04,1.860651353864188395e-06
7.604448897795591620e+04,1.781891425469251552e-06
7.636492985971944290e+04,1.706466915898514590e-06
7.668537074148296961e+04,1.634236490190409804e-06
7.700581162324649631e+04,1.565064806707578373e-06
7.732625250501002301e+04,1.498822262752319017e-06
7.764669338677354972e+04,1.435384750992223293e-06
7.796713426853707642e+04,1.374633426235919277e-06
7.828757515030060313e+04,1.316454482118428195e-06
7.860801603206412983e+04,1.260738937274454087e-06
7.892845691382765654e+04,1.207382430595882678e-06
7.924889779559118324e+04,1.156285025186987227e-06
7.956933867735470994e+04,1.107351020647331980e-06
7.988977955911823665e+04,1.060488773328091950e-06
8.021022044088176335e+04,1.015610524222662007e-06
8.053066132264529006e+04,9.726322341668308141e-07
8.085110220440881676e+04,9.314734260376632695e-07
8.117154308617234346e+04,8.920570336534650532e-07
8.149198396793587017e+04,8.543092570898889722e-07
8.181242484969939687e+04,8.181594241393692563e-07
8.213286573146292358e+04,7.835398576527051110e-07
8.245330661322645028e+04,7.503857485127239910e-07
8.277374749498997699e+04,7.186350340006146482e-07
8.309418837675350369e+04,6.882282813257009241e-07
8.341462925851703039e+04,6.591085760992027517e-07
8.373507014028055710e+04,6.312214155418605898e-07
8.405551102204408380e+04,6.045146062242481980e-07
8.437595190380761051e+04,5.789381661471617430e-07
8.469639278557113721e+04,5.544442309776720815e-07
8.501683366733466391e+04,5.309869642642682614e-07
8.533727454909819062e+04,5.085224714620450050e-07
8.565771543086171732e+04,4.870087176060656488e-07
8.597815631262524403e+04,4.664054484779305157e-07
8.629859719438877073e+04,4.466741151171687576e-07
8.661903807615229744e+04,4.277778015353812564e-07
8.693947895791582414e+04,4.096811554971058563e-07
8.725991983967935084e+04,3.923503222371680005e-07
8.758036072144287755e+04,3.757528809898066813e-07
8.790080160320640425e+04,3.598577842101809582e-07
8.822124248496993096e+04,3.446352993739294060e-07
8.854168336673345766e+04,3.300569532453205313e-07
8.886212424849698436e+04,3.160954785091865367e-07
8.918256513026052562e+04,3.027247626662843909e-07
8.950300601202405232e+04,2.899197990959988531e-07
8.982344689378757903e+04,2.776566401943791329e-07
9.014388777555110573e+04,2.659123524994217286e-07
9.046432865731463244e+04,2.546649737192460817e-07
9.078476953907815914e+04,2.438934715823980833e-07
9.110521042084168585e+04,2.335777044329501580e-07
9.142565130260521255e+04,2.236983834963476309e-07
9.174609218436873925e+04,2.142370367451040856e-07
9.206653306613226596e+04,2.051759742964530301e-07
9.238697394789579266e+04,1.964982552769532400e-07
9.270741482965931937e+04,1.881876560918034295e-07
9.302785571142284607e+04,1.802286400392655455e-07
9.334829659318637277e+04,1.726063282131305386e-07
9.366873747494989948e+04,1.653064716385792764e-07
9.398917835671342618e+04,1.583154245891177159e-07
9.430961923847695289e+04,1.516201190344816909e-07
9.463006012024047959e+04,1.452080401715387287e-07
9.495050100200400630e+04,1.390672029922487542e-07
9.527094188376753300e+04,1.331861298446970194e-07
9.559138276553105970e+04,1.275538289450797009e-07
9.591182364729458641e+04,1.221597738003113515e-07
9.623226452905811311e+04,1.169938835026343349e-07
9.655270541082163982e+04,1.120465038592517626e-07
9.687314629258516652e+04,1.073083893215716565e-07
9.719358717434869322e+04,1.027706856801585195e-07
9.751402805611221993e+04,9.842491349292071051e-08
9.783446893787574663e+04,9.426295221544661499e-08
9.815490981963927334e+04,9.027702500371691923e-08
9.847535070140280004e+04,8.645968416068724534e-08
9.879579158316632675e+04,8.280379719944236088e-08
9.911623246492985345e+04,7.930253349678359817e-08
9.943667334669338015e+04,7.594935151221890544e-08
9.975711422845690686e+04,7.273798654838709120e-08
1.000775551102204336e+05,6.966243902996565300e-08
1.003979959919839603e+05,6.671696327908369696e-08
1.007184368737474870e+05,6.389605676619562657e-08
1.010388777555110137e+05,6.119444981626205289e-08
1.013593186372745404e+05,5.860709575094115937e-08
1.016797595190380671e+05,5.612916144831055827e-08
1.020002004008015938e+05,5.375601830242489580e-08
1.023206412825651205e+05,5.148323356576412621e-08
1.026410821643286617e+05,4.930656205834601044e-08
1.029615230460921885e+05,4.722193822796566733e-08
1.032819639278557152e+05,4.522546854668134405e-08
1.036024048096192419e+05,4.331342422930030400e-08
1.039228456913827686e+05,4.148223426021942922e-08
1.042432865731462953e+05,3.972847871555552402e-08
1.045637274549098220e+05,3.804888236805419972e-08
1.048841683366733487e+05,3.644030856279556986e-08
1.052046092184368754e+05,3.489975335222471363e-08
1.055250501002004021e+05,3.342433987951939470e-08
1.058454909819639288e+05,3.201131299977515089e-08
1.061659318637274555e+05,3.065803412893184787e-08
1.064863727454909822e+05,2.936197631079502714e-08
1.068068136272545089e+05,2.812071949291253030e-08
1.071272545090180356e+05,2.693194600245957379e-08
1.074476953907815623e+05,2.579343621366003234e-08
1.077681362725450890e+05,2.470306439863101635e-08
1.080885771543086157e+05,2.365879475388126731e-08
1.084090180360721424e+05,2.265867759502374867e-08
1.087294589178356691e+05,2.170084571257760118e-08
1.090498997995991958e+05,2.078351088203707217e-08
1.093703406813627225e+05,1.990496052167345641e-08
1.096907815631262492e+05,1.906355449181392596e-08
1.100112224448897759e+05,1.825772202960509306e-08
1.103316633266533026e+05,1.748595881352432226e-08
1.106521042084168294e+05,1.674682415214374811e-08
1.109725450901803561e+05,1.603893829188548466e-08
1.112929859719438828e+05,1.536097983872925923e-08
1.116134268537074095e+05,1.471168328904711087e-08
1.119338677354709362e+05,1.408983666494446283e-08
1.122543086172344629e+05,1.349427924968218607e-08
1.125747494989979896e+05,1.292389941894236305e-08
1.128951903807615163e+05,1.237763256387943346e-08
1.132156312625250430e+05,1.185445910207066525e-08
1.135360721442885697e+05,1.135340257264432165e-08
1.138565130260520964e+05,1.087352781202166597e-08
1.141769539078156231e+05,1.041393920685978594e-08
1.144973947895791498e+05,9.973779020926974206e-09
1.148178356713426765e+05,9.552225792780620019e-09
1.151382765531062032e+05,9.148492801250255554e-09
1.154587174348697299e+05,8.761826595855383704e-09
1.157791583166332566e+05,8.391505589409222341e-09
1.160995991983967833e+05,8.036838710175889176e-09
1.164200400801603246e+05,7.697164111060181084e-09
1.167404809619238513e+05,7.371847933415722002e-09
1.170609218436873780e+05,7.060283123159442598e-09
1.173813627254509047e+05,6.761888296978561905e-09
1.177018036072144314e+05,6.476106656509651326e-09
1.180222444889779581e+05,6.202404948459323926e-09
1.183426853707414848e+05,5.940272468722037638e-09
1.186631262525050115e+05,5.689220108632866695e-09
1.189835671342685382e+05,5.448779441571882078e-09
1.193040080160320649e+05,5.218501848212382761e-09
1.196244488977955916e+05,4.997957678777417522e-09
1.199448897795591183e+05,4.786735450738375487e-09
1.202653306613226450e+05,4.584441080455734532e-09
1.205857715430861717e+05,4.390697147325455075e-09
1.209062124248496984e+05,4.205142189055484906e-09
1.212266533066132251e+05,4.027430026754932766e-09
1.215470941883767518e+05,3.857229118574341947e-09
1.218675350701402785e+05,3.694221940688821882e-09
1.221879759519038053e+05,3.538104394467034553e-09
1.225084168336673320e+05,3.388585238717928028e-09
1.228288577154308587e+05,3.245385545954061852e-09
1.231492985971943854e+05,3.108238181655279985e-09
1.234697394789579121e+05,2.976887305559534677e-09
1.237901803607214388e+05,2.851087894048764377e-09
1.241106212424849655e+05,2.730605282737301956e-09
1.244310621242484922e+05,2.615214728408012212e-09
1.247515030060120189e+05,2.504700989477517063e-09
1.250719438877755456e+05,2.398857924206532670e-09
1.253923847695390723e+05,2.297488105904573109e-09
1.257128256513025990e+05,2.200402454409975221e-09
1.260332665330661257e+05,2.107419883156675518e-09
1.263537074148296524e+05,2.018366961168294215e-09
1.266741482965931791e+05,1.933077589348015336e-09
1.269945891783567058e+05,1.851392690459450795e-09
1.273150300601202325e+05,1.773159912219266149e-09
1.276354709418837592e+05,1.698233342946916780e-09
